#
#  90 kVp Tungsten 12deg, 4.0 mm Al filtration
#
#     Spectrum IPEM Rept. 78: 090K12D0W2*
#     Mean energy: 49.2 keV
#     Air KERMA:   1.366e2 microGy per mAs at 750 mm
#     1st HVL:     4.161 mm Al
#
#  Energy [eV]    Photons per (mA*s*mm^2) (at 750 mm)
# ----------------------------------------------------
 15.0e3  1.04178e1
 15.5e3  2.39995e1
 16.0e3  5.05336e1
 16.5e3  9.64766e1
 17.0e3  1.74507e2
 17.5e3  2.91945e2
 18.0e3  4.66386e2
 18.5e3  7.11402e2
 19.0e3  1.03605e3
 19.5e3  1.46023e3
 20.0e3  1.98617e3
 20.5e3  2.61021e3
 21.0e3  3.38544e3
 21.5e3  4.24095e3
 22.0e3  5.24354e3
 22.5e3  6.32791e3
 23.0e3  7.54120e3
 23.5e3  8.77681e3
 24.0e3  1.01946e4
 24.5e3  1.15664e4
 25.0e3  1.29585e4
 25.5e3  1.44935e4
 26.0e3  1.60105e4
 26.5e3  1.74699e4
 27.0e3  1.90277e4
 27.5e3  2.04829e4
 28.0e3  2.20221e4
 28.5e3  2.33956e4
 29.0e3  2.48280e4
 29.5e3  2.60390e4
 30.0e3  2.72837e4
 30.5e3  2.85632e4
 31.0e3  2.95578e4
 31.5e3  3.06992e4
 32.0e3  3.16468e4
 32.5e3  3.25768e4
 33.0e3  3.34075e4
 33.5e3  3.41587e4
 34.0e3  3.48395e4
 34.5e3  3.54891e4
 35.0e3  3.60055e4
 35.5e3  3.65150e4
 36.0e3  3.69445e4
 36.5e3  3.72769e4
 37.0e3  3.76006e4
 37.5e3  3.78407e4
 38.0e3  3.80723e4
 38.5e3  3.82196e4
 39.0e3  3.83128e4
 39.5e3  3.83984e4
 40.0e3  3.84307e4
 40.5e3  3.84100e4
 41.0e3  3.83524e4
 41.5e3  3.82432e4
 42.0e3  3.81287e4
 42.5e3  3.80096e4
 43.0e3  3.78105e4
 43.5e3  3.76531e4
 44.0e3  3.74023e4
 44.5e3  3.71790e4
 45.0e3  3.68942e4
 45.5e3  3.66373e4
 46.0e3  3.63352e4
 46.5e3  3.59890e4
 47.0e3  3.57000e4
 47.5e3  3.53536e4
 48.0e3  3.49795e4
 48.5e3  3.46479e4
 49.0e3  3.42752e4
 49.5e3  3.38628e4
 50.0e3  3.34899e4
 50.5e3  3.30836e4
 51.0e3  3.26791e4
 51.5e3  3.22751e4
 52.0e3  3.18398e4
 52.5e3  3.14410e4
 53.0e3  3.10103e4
 53.5e3  3.05821e4
 54.0e3  3.01563e4
 54.5e3  2.97005e4
 55.0e3  2.92796e4
 55.5e3  2.88296e4
 56.0e3  2.83824e4
 56.5e3  2.79381e4
 57.0e3  2.74965e4
 57.5e3  2.70575e4
 58.0e3  6.96222e4
 58.5e3  2.61584e4
 59.0e3  2.57269e4
 59.5e3  1.01222e5
 60.0e3  2.48164e4
 60.5e3  2.43656e4
 61.0e3  2.39174e4
 61.5e3  2.34718e4
 62.0e3  2.30288e4
 62.5e3  2.25881e4
 63.0e3  2.21258e4
 63.5e3  2.16900e4
 64.0e3  2.12564e4
 64.5e3  2.08023e4
 65.0e3  2.03509e4
 65.5e3  1.99230e4
 66.0e3  1.94765e4
 66.5e3  1.90326e4
 67.0e3  4.47529e4
 67.5e3  1.81519e4
 68.0e3  1.77151e4
 68.5e3  1.72804e4
 69.0e3  2.37937e4
 69.5e3  1.61531e4
 70.0e3  1.44526e4
 70.5e3  1.41230e4
 71.0e3  1.37761e4
 71.5e3  1.34418e4
 72.0e3  1.31051e4
 72.5e3  1.27522e4
 73.0e3  1.24112e4
 73.5e3  1.20550e4
 74.0e3  1.17100e4
 74.5e3  1.13507e4
 75.0e3  1.10021e4
 75.5e3  1.06401e4
 76.0e3  1.02771e4
 76.5e3  9.92380e3
 77.0e3  9.55851e3
 77.5e3  9.19241e3
 78.0e3  8.83513e3
 78.5e3  8.46727e3
 79.0e3  8.09884e3
 79.5e3  7.72989e3
 80.0e3  7.36053e3
 80.5e3  6.99082e3
 81.0e3  6.62085e3
 81.5e3  6.25067e3
 82.0e3  5.88674e3
 82.5e3  5.51600e3
 83.0e3  5.14530e3
 83.5e3  4.77470e3
 84.0e3  4.39953e3
 84.5e3  4.02977e3
 85.0e3  3.66033e3
 85.5e3  3.29129e3
 86.0e3  2.92273e3
 86.5e3  2.55471e3
 87.0e3  2.18731e3
 87.5e3  1.82062e3
 88.0e3  1.45468e3
 88.5e3  1.08841e3
 89.0e3  7.24621e2
 89.5e3  3.61821e2
 90.0e3  -3.01387e1

 
